Time[ps]      Etot[eV]     Epot[eV]     Ekin[eV]    T[K]
0.0000        -1165.480    -1182.925       17.445   978.0
0.0050        -1164.744    -1181.228       16.484   924.1
0.0100        -1164.488    -1178.067       13.580   761.3
0.0150        -1163.956    -1175.394       11.438   641.2
0.0200        -1163.301    -1174.426       11.125   623.7
0.0250        -1162.622    -1173.208       10.586   593.4
0.0300        -1161.865    -1171.711        9.846   552.0
0.0350        -1161.021    -1170.325        9.304   521.6
0.0400        -1160.216    -1170.638       10.422   584.3
0.0450        -1159.524    -1170.875       11.351   636.3
0.0500        -1158.877    -1170.064       11.187   627.1
0.0550        -1158.185    -1169.014       10.829   607.1
0.0600        -1157.518    -1169.295       11.777   660.2
0.0650        -1156.950    -1169.481       12.531   702.5
0.0700        -1156.458    -1169.566       13.108   734.9
0.0750        -1155.951    -1168.414       12.463   698.7
0.0800        -1155.365    -1167.139       11.773   660.0
0.0850        -1154.810    -1167.665       12.855   720.7
0.0900        -1154.353    -1168.019       13.666   766.1
0.0950        -1153.926    -1167.679       13.753   771.0
0.1000        -1153.485    -1166.653       13.168   738.2
0.1050        -1152.969    -1165.707       12.737   714.1
0.1100        -1152.524    -1166.167       13.642   764.8
0.1150        -1152.104    -1165.802       13.698   767.9
0.1200        -1151.714    -1165.490       13.776   772.3
0.1250        -1151.316    -1165.129       13.814   774.4
0.1300        -1150.971    -1165.747       14.776   828.3
0.1350        -1150.747    -1166.479       15.732   881.9
0.1400        -1150.593    -1167.048       16.456   922.5
0.1450        -1150.476    -1167.144       16.669   934.5
0.1500        -1150.394    -1168.038       17.645   989.2
0.1550        -1150.420    -1168.600       18.180  1019.2
0.1600        -1150.454    -1168.236       17.782   996.9
0.1650        -1150.421    -1167.720       17.299   969.8
0.1700        -1150.354    -1167.180       16.826   943.3
0.1750        -1150.271    -1166.817       16.546   927.6
0.1800        -1150.128    -1166.642       16.515   925.8
0.1850        -1150.006    -1166.731       16.725   937.6
0.1900        -1149.897    -1166.660       16.763   939.7
0.1950        -1149.817    -1167.443       17.626   988.1
0.2000        -1149.799    -1167.985       18.186  1019.5
0.2050        -1149.844    -1168.358       18.514  1037.9
0.2100        -1149.974    -1169.494       19.520  1094.3
0.2150        -1150.107    -1169.022       18.915  1060.4
0.2200        -1150.135    -1167.847       17.711   992.9
0.2250        -1150.112    -1167.366       17.254   967.3
0.2300        -1150.051    -1166.787       16.736   938.2
0.2350        -1149.955    -1166.478       16.523   926.3
0.2400        -1149.818    -1165.847       16.029   898.6
0.2450        -1149.664    -1166.768       17.103   958.8
0.2500        -1149.649    -1168.183       18.534  1039.0
0.2550        -1149.727    -1168.647       18.920  1060.7
0.2600        -1149.861    -1168.815       18.954  1062.6
0.2650        -1149.987    -1168.774       18.787  1053.2
0.2700        -1150.061    -1168.315       18.254  1023.3
0.2750        -1150.099    -1167.799       17.700   992.3
0.2800        -1150.075    -1167.283       17.207   964.6
0.2850        -1150.027    -1167.623       17.596   986.4
0.2900        -1149.998    -1167.662       17.664   990.2
0.2950        -1149.964    -1167.449       17.485   980.2
0.3000        -1149.915    -1167.413       17.499   981.0
0.3050        -1149.843    -1166.689       16.846   944.4
0.3100        -1149.721    -1165.670       15.949   894.1
0.3150        -1149.479    -1164.273       14.794   829.4
0.3200        -1149.138    -1163.615       14.477   811.6
0.3250        -1148.863    -1164.492       15.629   876.2
0.3300        -1148.700    -1165.174       16.473   923.5
0.3350        -1148.612    -1165.836       17.224   965.6
0.3400        -1148.545    -1165.772       17.227   965.8
0.3450        -1148.497    -1166.296       17.800   997.9
0.3500        -1148.554    -1167.486       18.932  1061.4
0.3550        -1148.677    -1167.628       18.951  1062.4
0.3600        -1148.781    -1167.368       18.586  1042.0
0.3650        -1148.822    -1166.661       17.840  1000.1
0.3700        -1148.822    -1166.832       18.010  1009.6
0.3750        -1148.842    -1166.851       18.010  1009.6
0.3800        -1148.823    -1165.941       17.117   959.6
0.3850        -1148.683    -1164.310       15.627   876.1
0.3900        -1148.416    -1163.302       14.886   834.5
0.3950        -1148.146    -1163.719       15.573   873.0
0.4000        -1147.971    -1164.701       16.730   937.9
0.4050        -1147.918    -1165.619       17.702   992.4
0.4100        -1147.909    -1165.439       17.530   982.7
0.4150        -1147.895    -1165.687       17.792   997.4
0.4200        -1147.920    -1166.263       18.343  1028.3
0.4250        -1148.014    -1167.036       19.022  1066.4
0.4300        -1148.144    -1167.072       18.928  1061.1
0.4350        -1148.262    -1167.319       19.057  1068.3
0.4400        -1148.380    -1167.431       19.051  1068.0
0.4450        -1148.476    -1167.186       18.710  1048.9
0.4500        -1148.562    -1167.146       18.584  1041.8
0.4550        -1148.624    -1167.013       18.389  1030.9
0.4600        -1148.707    -1167.480       18.773  1052.4
0.4650        -1148.817    -1167.774       18.957  1062.7
0.4700        -1148.940    -1167.962       19.022  1066.4
0.4750        -1149.042    -1167.721       18.678  1047.1
0.4800        -1149.124    -1167.760       18.635  1044.7
0.4850        -1149.202    -1167.943       18.741  1050.6
0.4900        -1149.292    -1168.174       18.882  1058.5
0.4950        -1149.365    -1167.658       18.293  1025.5
0.5000        -1149.353    -1166.760       17.407   975.9
Time[ps]      Etot[eV]     Epot[eV]     Ekin[eV]    T[K]
0.0000        -1165.070    -1180.286       15.216   859.3
0.0050        -1164.607    -1179.206       14.600   824.4
0.0100        -1164.200    -1176.648       12.447   702.9
0.0150        -1163.579    -1174.171       10.592   598.1
0.0200        -1162.831    -1172.862       10.032   566.5
0.0250        -1162.058    -1171.993        9.935   561.0
0.0300        -1161.260    -1170.762        9.502   536.6
0.0350        -1160.425    -1169.700        9.275   523.8
0.0400        -1159.589    -1169.157        9.568   540.3
0.0450        -1158.790    -1168.594        9.804   553.6
0.0500        -1157.989    -1167.649        9.660   545.5
0.0550        -1157.193    -1167.314       10.122   571.6
0.0600        -1156.496    -1168.160       11.664   658.6
0.0650        -1155.958    -1168.925       12.967   732.2
0.0700        -1155.499    -1168.617       13.118   740.8
0.0750        -1155.010    -1167.395       12.385   699.4
0.0800        -1154.444    -1166.258       11.813   667.1
0.0850        -1153.849    -1165.664       11.815   667.2
0.0900        -1153.269    -1165.420       12.152   686.2
0.0950        -1152.722    -1165.031       12.310   695.1
0.1000        -1152.158    -1164.011       11.853   669.3
0.1050        -1151.539    -1162.640       11.100   626.8
0.1100        -1150.845    -1161.449       10.604   598.8
0.1150        -1150.146    -1161.198       11.051   624.1
0.1200        -1149.517    -1161.541       12.025   679.0
0.1250        -1149.003    -1162.235       13.232   747.2
0.1300        -1148.613    -1163.164       14.551   821.7
0.1350        -1148.363    -1164.215       15.852   895.1
0.1400        -1148.204    -1164.478       16.274   919.0
0.1450        -1148.068    -1164.422       16.354   923.5
0.1500        -1147.953    -1164.765       16.812   949.4
0.1550        -1147.904    -1165.465       17.561   991.7
0.1600        -1147.898    -1165.328       17.430   984.2
0.1650        -1147.839    -1164.400       16.560   935.2
0.1700        -1147.688    -1163.471       15.783   891.3
0.1750        -1147.506    -1163.610       16.104   909.4
0.1800        -1147.382    -1164.337       16.955   957.4
0.1850        -1147.344    -1164.960       17.616   994.8
0.1900        -1147.342    -1165.134       17.792  1004.7
0.1950        -1147.371    -1165.664       18.293  1033.0
0.2000        -1147.465    -1166.591       19.126  1080.0
0.2050        -1147.631    -1167.036       19.405  1095.8
0.2100        -1147.766    -1166.418       18.653  1053.3
0.2150        -1147.834    -1165.994       18.159  1025.5
0.2200        -1147.889    -1166.226       18.338  1035.5
0.2250        -1147.974    -1166.642       18.668  1054.1
0.2300        -1148.065    -1166.313       18.248  1030.5
0.2350        -1148.089    -1165.557       17.468   986.4
0.2400        -1148.053    -1165.246       17.193   970.9
0.2450        -1148.018    -1165.464       17.446   985.1
0.2500        -1148.002    -1165.481       17.479   987.0
0.2550        -1147.984    -1165.582       17.598   993.8
0.2600        -1147.990    -1165.867       17.877  1009.5
0.2650        -1148.021    -1166.068       18.047  1019.1
0.2700        -1148.043    -1165.738       17.696   999.3
0.2750        -1148.027    -1165.312       17.285   976.1
0.2800        -1147.968    -1164.827       16.859   952.0
0.2850        -1147.876    -1164.499       16.623   938.7
0.2900        -1147.765    -1164.226       16.461   929.6
0.2950        -1147.645    -1164.125       16.480   930.6
0.3000        -1147.516    -1163.722       16.206   915.1
0.3050        -1147.343    -1163.020       15.677   885.3
0.3100        -1147.115    -1162.343       15.228   859.9
0.3150        -1146.878    -1162.455       15.576   879.6
0.3200        -1146.689    -1162.931       16.242   917.2
0.3250        -1146.591    -1163.802       17.211   971.9
0.3300        -1146.561    -1164.119       17.558   991.5
0.3350        -1146.550    -1164.184       17.634   995.8
0.3400        -1146.536    -1164.001       17.465   986.3
0.3450        -1146.493    -1163.615       17.122   966.9
0.3500        -1146.412    -1163.249       16.837   950.8
0.3550        -1146.331    -1163.615       17.284   976.0
0.3600        -1146.321    -1164.146       17.825  1006.6
0.3650        -1146.321    -1164.030       17.710  1000.1
0.3700        -1146.321    -1164.051       17.731  1001.3
0.3750        -1146.331    -1164.422       18.091  1021.6
0.3800        -1146.397    -1164.839       18.442  1041.4
0.3850        -1146.444    -1164.213       17.769  1003.4
0.3900        -1146.439    -1164.140       17.702   999.6
0.3950        -1146.468    -1164.891       18.423  1040.3
0.4000        -1146.555    -1165.120       18.565  1048.3
0.4050        -1146.622    -1164.669       18.047  1019.1
0.4100        -1146.633    -1164.215       17.582   992.9
0.4150        -1146.623    -1164.333       17.710  1000.1
0.4200        -1146.632    -1164.462       17.830  1006.8
0.4250        -1146.624    -1163.826       17.202   971.4
0.4300        -1146.525    -1162.828       16.303   920.6
0.4350        -1146.383    -1162.853       16.469   930.0
0.4400        -1146.291    -1163.533       17.242   973.7
0.4450        -1146.283    -1164.265       17.982  1015.4
0.4500        -1146.302    -1163.922       17.620   995.0
0.4550        -1146.246    -1162.869       16.622   938.7
0.4600        -1146.111    -1162.403       16.293   920.0
0.4650        -1146.009    -1163.413       17.404   982.8
0.4700        -1146.042    -1164.749       18.707  1056.4
0.4750        -1146.174    -1165.491       19.317  1090.8
0.4800        -1146.333    -1165.469       19.135  1080.6
0.4850        -1146.445    -1164.961       18.516  1045.6
0.4900        -1146.505    -1164.687       18.182  1026.7
0.4950        -1146.556    -1164.844       18.288  1032.7
0.5000        -1146.594    -1164.290       17.696   999.3
0.5050        -1146.547    -1163.363       16.816   949.6
0.5100        -1146.465    -1163.664       17.199   971.2
0.5150        -1146.458    -1164.610       18.152  1025.0
0.5200        -1146.514    -1164.771       18.256  1030.9
0.5250        -1146.540    -1164.167       17.626   995.4
0.5300        -1146.516    -1164.025       17.509   988.7
0.5350        -1146.541    -1165.167       18.627  1051.8
0.5400        -1146.669    -1165.810       19.141  1080.9
0.5450        -1146.781    -1165.079       18.298  1033.3
0.5500        -1146.804    -1164.441       17.637   996.0
0.5550        -1146.809    -1164.810       18.001  1016.5
0.5600        -1146.867    -1165.317       18.450  1041.8
0.5650        -1146.921    -1164.679       17.758  1002.8
0.5700        -1146.856    -1163.107       16.251   917.7
0.5750        -1146.667    -1162.193       15.527   876.8
0.5800        -1146.466    -1162.539       16.072   907.6
0.5850        -1146.343    -1163.167       16.824   950.0
0.5900        -1146.258    -1162.935       16.677   941.8
0.5950        -1146.132    -1162.384       16.252   917.7
0.6000        -1145.978    -1162.132       16.154   912.2
0.6050        -1145.845    -1162.595       16.750   945.9
0.6100        -1145.771    -1162.953       17.183   970.3
0.6150        -1145.731    -1163.138       17.407   983.0
0.6200        -1145.716    -1163.416       17.700   999.5
0.6250        -1145.727    -1163.661       17.934  1012.7
0.6300        -1145.758    -1164.010       18.252  1030.7
0.6350        -1145.855    -1164.852       18.997  1072.8
0.6400        -1145.980    -1164.730       18.750  1058.8
0.6450        -1146.056    -1164.193       18.137  1024.2
0.6500        -1146.091    -1164.156       18.065  1020.1
0.6550        -1146.140    -1164.435       18.295  1033.1
0.6600        -1146.186    -1164.126       17.940  1013.1
0.6650        -1146.189    -1163.727       17.538   990.4
0.6700        -1146.152    -1163.168       17.016   960.9
0.6750        -1146.052    -1162.430       16.377   924.8
0.6800        -1145.910    -1162.153       16.244   917.3
0.6850        -1145.782    -1162.540       16.758   946.3
0.6900        -1145.727    -1163.290       17.563   991.8
0.6950        -1145.743    -1163.994       18.251  1030.6
0.7000        -1145.840    -1165.086       19.246  1086.8
0.7050        -1146.028    -1165.897       19.869  1122.0
0.7100        -1146.244    -1165.984       19.741  1114.8
0.7150        -1146.408    -1165.219       18.811  1062.2
0.7200        -1146.457    -1164.084       17.628   995.4
0.7250        -1146.442    -1164.123       17.681   998.4
0.7300        -1146.463    -1164.608       18.145  1024.6
0.7350        -1146.503    -1164.348       17.846  1007.7
0.7400        -1146.478    -1163.441       16.963   957.9
0.7450        -1146.363    -1162.533       16.171   913.1
0.7500        -1146.203    -1162.371       16.168   913.0
0.7550        -1146.072    -1162.836       16.764   946.7
0.7600        -1146.019    -1163.706       17.687   998.8
0.7650        -1146.058    -1164.588       18.530  1046.4
0.7700        -1146.173    -1165.316       19.143  1081.0
0.7750        -1146.325    -1165.515       19.189  1083.6
0.7800        -1146.460    -1165.290       18.830  1063.3
0.7850        -1146.560    -1165.167       18.607  1050.7
0.7900        -1146.652    -1165.238       18.586  1049.5
0.7950        -1146.723    -1164.784       18.061  1019.9
0.8000        -1146.716    -1163.866       17.149   968.4
0.8050        -1146.639    -1163.572       16.933   956.2
0.8100        -1146.596    -1164.306       17.710  1000.1
0.8150        -1146.615    -1164.499       17.883  1009.9
0.8200        -1146.593    -1163.502       16.909   954.8
0.8250        -1146.467    -1162.512       16.044   906.0
0.8300        -1146.299    -1162.465       16.166   912.9
0.8350        -1146.166    -1162.761       16.595   937.1
0.8400        -1146.064    -1162.865       16.801   948.7
0.8450        -1145.980    -1162.925       16.946   956.9
0.8500        -1145.906    -1162.949       17.043   962.4
0.8550        -1145.850    -1163.164       17.314   977.7
0.8600        -1145.829    -1163.547       17.718  1000.5
0.8650        -1145.843    -1163.790       17.947  1013.5
0.8700        -1145.872    -1163.990       18.118  1023.1
0.8750        -1145.937    -1164.651       18.714  1056.8
0.8800        -1146.066    -1165.282       19.216  1085.1
0.8850        -1146.211    -1165.172       18.961  1070.7
0.8900        -1146.313    -1164.782       18.469  1042.9
0.8950        -1146.367    -1164.366       18.000  1016.4
0.9000        -1146.381    -1164.106       17.726  1001.0
0.9050        -1146.380    -1164.092       17.712  1000.2
0.9100        -1146.377    -1163.933       17.556   991.4
0.9150        -1146.350    -1163.738       17.388   981.9
0.9200        -1146.337    -1164.293       17.956  1014.0
0.9250        -1146.405    -1165.242       18.838  1063.8
0.9300        -1146.535    -1165.529       18.994  1072.6
0.9350        -1146.634    -1165.009       18.374  1037.6
0.9400        -1146.699    -1165.278       18.579  1049.2
0.9450        -1146.830    -1166.347       19.517  1102.1
0.9500        -1147.025    -1166.570       19.545  1103.7
0.9550        -1147.160    -1165.502       18.342  1035.8
0.9600        -1147.162    -1164.165       17.003   960.1
0.9650        -1147.050    -1163.241       16.191   914.3
0.9700        -1146.888    -1162.891       16.003   903.7
0.9750        -1146.715    -1162.576       15.862   895.7
0.9800        -1146.527    -1162.445       15.918   898.9
0.9850        -1146.363    -1162.680       16.317   921.4
0.9900        -1146.241    -1162.980       16.739   945.2
0.9950        -1146.158    -1163.284       17.126   967.1
1.0000        -1146.121    -1163.824       17.703   999.7
1.0050        -1146.138    -1164.091       17.953  1013.8
1.0100        -1146.148    -1163.898       17.750  1002.3
1.0150        -1146.142    -1163.756       17.614   994.7
1.0200        -1146.124    -1163.730       17.606   994.2
1.0250        -1146.118    -1163.811       17.692   999.1
1.0300        -1146.103    -1163.633       17.530   989.9
1.0350        -1146.074    -1163.407       17.333   978.8
1.0400        -1146.021    -1163.227       17.206   971.6
1.0450        -1145.960    -1162.886       16.927   955.8
1.0500        -1145.851    -1162.439       16.588   936.7
1.0550        -1145.747    -1162.826       17.080   964.5
1.0600        -1145.731    -1164.096       18.365  1037.0
1.0650        -1145.837    -1164.957       19.121  1079.7
1.0700        -1145.957    -1164.645       18.688  1055.3
1.0750        -1146.016    -1163.927       17.911  1011.4
1.0800        -1146.005    -1163.564       17.559   991.6
1.0850        -1146.001    -1163.933       17.932  1012.6
1.0900        -1146.049    -1164.760       18.711  1056.6
1.0950        -1146.188    -1165.658       19.470  1099.5
1.1000        -1146.360    -1165.679       19.319  1090.9
1.1050        -1146.487    -1164.890       18.403  1039.2
1.1100        -1146.504    -1163.944       17.440   984.9
1.1150        -1146.469    -1163.713       17.244   973.8
1.1200        -1146.413    -1163.414       17.001   960.0
1.1250        -1146.349    -1163.613       17.264   974.9
1.1300        -1146.328    -1163.917       17.589   993.2
1.1350        -1146.315    -1163.806       17.491   987.7
1.1400        -1146.264    -1163.202       16.937   956.5
1.1450        -1146.173    -1163.025       16.852   951.6
1.1500        -1146.116    -1163.616       17.500   988.2
1.1550        -1146.127    -1164.335       18.208  1028.2
1.1600        -1146.218    -1165.151       18.933  1069.2
1.1650        -1146.339    -1165.176       18.837  1063.7
1.1700        -1146.434    -1164.784       18.350  1036.2
1.1750        -1146.461    -1164.118       17.657   997.1
1.1800        -1146.430    -1163.568       17.138   967.8
1.1850        -1146.361    -1163.385       17.023   961.3
1.1900        -1146.296    -1163.316       17.021   961.2
1.1950        -1146.204    -1162.787       16.583   936.5
1.2000        -1146.079    -1162.501       16.421   927.3
