Time[ps]      Etot[eV]     Epot[eV]     Ekin[eV]    T[K]
0.0000        -1167.876    -1182.925       15.050   843.7
0.0050        -1167.698    -1181.496       13.798   773.5
0.0100        -1167.527    -1178.606       11.079   621.1
0.0150        -1167.120    -1176.579        9.459   530.3
0.0200        -1166.627    -1175.886        9.259   519.1
0.0250        -1166.110    -1174.867        8.757   490.9
0.0300        -1165.521    -1173.461        7.939   445.1
0.0350        -1164.870    -1172.603        7.732   433.5
0.0400        -1164.249    -1172.799        8.550   479.3
0.0450        -1163.724    -1173.160        9.436   529.0
0.0500        -1163.248    -1172.641        9.393   526.6
0.0550        -1162.730    -1171.534        8.804   493.6
0.0600        -1162.197    -1171.596        9.399   526.9
0.0650        -1161.786    -1172.903       11.118   623.3
0.0700        -1161.534    -1173.819       12.285   688.7
0.0750        -1161.325    -1173.076       11.751   658.8
0.0800        -1161.009    -1171.366       10.357   580.6
0.0850        -1160.562    -1169.903        9.341   523.7
0.0900        -1160.057    -1169.329        9.272   519.8
0.0950        -1159.575    -1169.282        9.707   544.2
0.1000        -1159.128    -1169.018        9.890   554.5
0.1050        -1158.700    -1168.832       10.132   568.0
0.1100        -1158.307    -1168.982       10.676   598.5
0.1150        -1157.981    -1169.388       11.407   639.5
0.1200        -1157.723    -1169.730       12.007   673.1
0.1250        -1157.515    -1169.951       12.436   697.1
0.1300        -1157.332    -1169.694       12.362   693.0
0.1350        -1157.135    -1169.422       12.287   688.8
0.1400        -1156.946    -1169.444       12.498   700.7
0.1450        -1156.785    -1169.616       12.831   719.3
0.1500        -1156.655    -1169.721       13.066   732.5
0.1550        -1156.540    -1169.683       13.143   736.8
0.1600        -1156.437    -1169.882       13.445   753.7
0.1650        -1156.379    -1170.337       13.958   782.5
0.1700        -1156.360    -1170.548       14.188   795.4
0.1750        -1156.353    -1170.599       14.247   798.7
0.1800        -1156.354    -1170.642       14.288   801.0
0.1850        -1156.351    -1170.509       14.157   793.7
0.1900        -1156.340    -1170.484       14.144   792.9
0.1950        -1156.327    -1170.475       14.148   793.1
0.2000        -1156.326    -1170.712       14.386   806.5
0.2050        -1156.346    -1170.859       14.513   813.6
0.2100        -1156.371    -1170.855       14.484   812.0
0.2150        -1156.391    -1170.904       14.513   813.6
0.2200        -1156.426    -1171.170       14.744   826.5
0.2250        -1156.472    -1171.079       14.606   818.8
0.2300        -1156.480    -1170.513       14.033   786.7
0.2350        -1156.437    -1170.149       13.712   768.7
0.2400        -1156.386    -1170.221       13.835   775.6
0.2450        -1156.345    -1170.135       13.790   773.1
0.2500        -1156.279    -1169.689       13.410   751.8
0.2550        -1156.187    -1169.596       13.409   751.7
0.2600        -1156.126    -1170.174       14.048   787.5
0.2650        -1156.140    -1170.964       14.825   831.1
0.2700        -1156.219    -1171.479       15.260   855.5
0.2750        -1156.311    -1171.261       14.950   838.1
0.2800        -1156.342    -1170.483       14.141   792.8
0.2850        -1156.310    -1170.127       13.818   774.6
0.2900        -1156.279    -1170.480       14.201   796.1
0.2950        -1156.285    -1170.678       14.393   806.9
0.3000        -1156.280    -1170.186       13.905   779.5
0.3050        -1156.212    -1169.432       13.221   741.2
0.3100        -1156.099    -1169.261       13.162   737.9
0.3150        -1156.003    -1169.445       13.442   753.5
0.3200        -1155.927    -1169.391       13.464   754.8
0.3250        -1155.831    -1168.945       13.115   735.2
0.3300        -1155.709    -1168.824       13.115   735.2
0.3350        -1155.608    -1169.089       13.481   755.8
0.3400        -1155.541    -1169.250       13.709   768.5
0.3450        -1155.475    -1169.031       13.556   760.0
0.3500        -1155.407    -1169.272       13.864   777.2
0.3550        -1155.412    -1170.319       14.907   835.7
0.3600        -1155.509    -1171.021       15.513   869.6
0.3650        -1155.626    -1170.799       15.173   850.6
0.3700        -1155.668    -1169.744       14.076   789.1
0.3750        -1155.604    -1168.833       13.230   741.7
0.3800        -1155.488    -1168.648       13.160   737.7
0.3850        -1155.382    -1168.640       13.259   743.3
0.3900        -1155.272    -1168.382       13.110   734.9
0.3950        -1155.155    -1168.372       13.218   741.0
0.4000        -1155.071    -1168.822       13.750   770.8
0.4050        -1155.038    -1169.085       14.047   787.5
0.4100        -1155.017    -1169.064       14.047   787.5
0.4150        -1155.008    -1169.349       14.341   804.0
0.4200        -1155.036    -1169.765       14.728   825.7
0.4250        -1155.091    -1169.920       14.829   831.3
0.4300        -1155.140    -1169.752       14.612   819.2
0.4350        -1155.172    -1169.845       14.673   822.6
0.4400        -1155.223    -1170.176       14.953   838.3
0.4450        -1155.300    -1170.442       15.142   848.9
0.4500        -1155.383    -1170.348       14.965   839.0
0.4550        -1155.423    -1169.744       14.321   802.8
0.4600        -1155.398    -1169.206       13.808   774.1
0.4650        -1155.354    -1169.403       14.050   787.6
0.4700        -1155.358    -1169.846       14.488   812.2
0.4750        -1155.365    -1169.558       14.192   795.6
0.4800        -1155.352    -1169.607       14.255   799.2
0.4850        -1155.375    -1170.264       14.890   834.7
0.4900        -1155.444    -1170.299       14.855   832.8
0.4950        -1155.472    -1169.806       14.334   803.6
0.5000        -1155.486    -1170.176       14.690   823.6
Time[ps]      Etot[eV]     Epot[eV]     Ekin[eV]    T[K]
0.0000        -1165.908    -1180.286       14.378   811.9
0.0050        -1166.024    -1179.262       13.237   747.5
0.0100        -1165.832    -1176.925       11.092   626.4
0.0150        -1165.439    -1174.913        9.474   535.0
0.0200        -1164.939    -1173.978        9.039   510.4
0.0250        -1164.424    -1173.326        8.901   502.6
0.0300        -1163.883    -1172.365        8.483   479.0
0.0350        -1163.303    -1171.540        8.237   465.1
0.0400        -1162.720    -1171.123        8.402   474.5
0.0450        -1162.158    -1170.710        8.552   482.9
0.0500        -1161.596    -1170.032        8.436   476.4
0.0550        -1161.029    -1169.625        8.596   485.4
0.0600        -1160.498    -1169.710        9.213   520.3
0.0650        -1160.041    -1170.051       10.010   565.3
0.0700        -1159.637    -1169.841       10.203   576.2
0.0750        -1159.224    -1169.079        9.856   556.5
0.0800        -1158.770    -1168.301        9.531   538.2
0.0850        -1158.301    -1167.907        9.606   542.4
0.0900        -1157.851    -1167.606        9.755   550.9
0.0950        -1157.399    -1166.970        9.571   540.5
0.1000        -1156.918    -1166.124        9.206   519.9
0.1050        -1156.416    -1165.754        9.338   527.3
0.1100        -1155.960    -1166.050       10.090   569.8
0.1150        -1155.588    -1166.568       10.980   620.0
0.1200        -1155.289    -1166.764       11.476   648.0
0.1250        -1155.016    -1166.559       11.543   651.8
0.1300        -1154.757    -1166.373       11.616   655.9
0.1350        -1154.498    -1166.204       11.706   661.0
0.1400        -1154.267    -1166.345       12.078   682.0
0.1450        -1154.062    -1166.450       12.388   699.5
0.1500        -1153.904    -1166.750       12.847   725.4
0.1550        -1153.787    -1167.122       13.335   753.0
0.1600        -1153.731    -1167.564       13.833   781.1
0.1650        -1153.698    -1167.447       13.749   776.4
0.1700        -1153.642    -1166.966       13.324   752.4
0.1750        -1153.538    -1166.404       12.866   726.5
0.1800        -1153.404    -1166.129       12.725   718.6
0.1850        -1153.262    -1166.029       12.768   721.0
0.1900        -1153.139    -1166.194       13.056   737.3
0.1950        -1153.046    -1166.412       13.366   754.8
0.2000        -1152.990    -1166.726       13.736   775.7
0.2050        -1152.968    -1166.972       14.003   790.8
0.2100        -1152.964    -1167.087       14.123   797.5
0.2150        -1152.965    -1167.129       14.164   799.9
0.2200        -1152.981    -1167.473       14.492   818.4
0.2250        -1153.028    -1167.834       14.806   836.1
0.2300        -1153.112    -1168.304       15.193   857.9
0.2350        -1153.230    -1168.889       15.659   884.2
0.2400        -1153.413    -1169.872       16.459   929.4
0.2450        -1153.644    -1170.160       16.516   932.6
0.2500        -1153.844    -1169.659       15.816   893.1
0.2550        -1153.965    -1169.085       15.120   853.8
0.2600        -1154.046    -1169.140       15.094   852.4
0.2650        -1154.162    -1169.668       15.506   875.6
0.2700        -1154.313    -1169.899       15.586   880.1
0.2750        -1154.438    -1169.571       15.133   854.6
0.2800        -1154.501    -1169.033       14.531   820.6
0.2850        -1154.524    -1168.987       14.463   816.7
0.2900        -1154.545    -1168.867       14.322   808.8
0.2950        -1154.531    -1168.418       13.886   784.2
0.3000        -1154.491    -1168.192       13.701   773.7
0.3050        -1154.430    -1167.955       13.524   763.7
0.3100        -1154.361    -1167.533       13.171   743.8
0.3150        -1154.221    -1166.336       12.115   684.1
0.3200        -1153.990    -1165.595       11.605   655.3
0.3250        -1153.748    -1165.701       11.953   675.0
0.3300        -1153.565    -1166.259       12.694   716.8
0.3350        -1153.439    -1166.475       13.036   736.1
0.3400        -1153.337    -1166.573       13.237   747.5
0.3450        -1153.242    -1166.542       13.300   751.0
0.3500        -1153.157    -1166.482       13.325   752.5
0.3550        -1153.049    -1165.927       12.879   727.2
0.3600        -1152.906    -1165.579       12.673   715.7
0.3650        -1152.748    -1165.419       12.672   715.6
0.3700        -1152.617    -1165.751       13.134   741.7
0.3750        -1152.530    -1166.101       13.572   766.4
0.3800        -1152.484    -1166.297       13.813   780.0
0.3850        -1152.418    -1165.668       13.250   748.2
0.3900        -1152.294    -1165.155       12.861   726.3
0.3950        -1152.174    -1165.555       13.382   755.7
0.4000        -1152.121    -1166.241       14.120   797.3
0.4050        -1152.153    -1167.035       14.882   840.4
0.4100        -1152.226    -1167.308       15.082   851.7
0.4150        -1152.305    -1167.353       15.048   849.7
0.4200        -1152.379    -1167.329       14.950   844.2
0.4250        -1152.447    -1167.444       14.997   846.9
0.4300        -1152.538    -1167.833       15.295   863.7
0.4350        -1152.635    -1167.601       14.966   845.1
0.4400        -1152.695    -1167.370       14.675   828.7
0.4450        -1152.726    -1167.155       14.430   814.8
0.4500        -1152.750    -1167.313       14.564   822.4
0.4550        -1152.791    -1167.479       14.688   829.4
0.4600        -1152.835    -1167.460       14.625   825.9
0.4650        -1152.858    -1167.047       14.190   801.3
0.4700        -1152.826    -1166.582       13.756   776.8
0.4750        -1152.777    -1166.647       13.870   783.2
0.4800        -1152.763    -1167.197       14.434   815.1
0.4850        -1152.794    -1167.352       14.558   822.1
0.4900        -1152.813    -1167.031       14.218   802.9
0.4950        -1152.791    -1166.662       13.871   783.3
0.5000        -1152.775    -1167.044       14.269   805.8
0.5050        -1152.810    -1167.566       14.757   833.3
0.5100        -1152.873    -1167.612       14.739   832.3
0.5150        -1152.911    -1167.183       14.272   805.9
0.5200        -1152.913    -1167.163       14.250   804.7
0.5250        -1152.932    -1167.604       14.672   828.5
0.5300        -1152.999    -1168.093       15.094   852.4
0.5350        -1153.074    -1167.861       14.786   835.0
0.5400        -1153.097    -1167.274       14.178   800.6
0.5450        -1153.085    -1167.212       14.127   797.8
0.5500        -1153.091    -1167.773       14.681   829.1
0.5550        -1153.169    -1168.439       15.270   862.3
0.5600        -1153.269    -1168.378       15.109   853.2
0.5650        -1153.348    -1167.975       14.628   826.0
0.5700        -1153.372    -1167.637       14.265   805.6
0.5750        -1153.391    -1167.736       14.345   810.1
0.5800        -1153.411    -1167.610       14.200   801.8
0.5850        -1153.402    -1167.221       13.818   780.3
0.5900        -1153.358    -1166.784       13.427   758.2
0.5950        -1153.283    -1166.655       13.372   755.1
0.6000        -1153.196    -1166.502       13.306   751.4
0.6050        -1153.098    -1166.200       13.103   739.9
0.6100        -1152.988    -1165.978       12.990   733.5
0.6150        -1152.885    -1166.130       13.245   748.0
0.6200        -1152.811    -1166.380       13.569   766.3
0.6250        -1152.747    -1166.178       13.431   758.4
0.6300        -1152.660    -1165.875       13.215   746.3
0.6350        -1152.559    -1165.790       13.231   747.1
0.6400        -1152.475    -1166.033       13.558   765.6
0.6450        -1152.429    -1166.321       13.892   784.5
0.6500        -1152.398    -1166.295       13.897   784.7
0.6550        -1152.356    -1166.050       13.694   773.3
0.6600        -1152.305    -1166.126       13.821   780.5
0.6650        -1152.281    -1166.489       14.208   802.3
0.6700        -1152.300    -1166.946       14.646   827.0
0.6750        -1152.354    -1167.234       14.881   840.3
0.6800        -1152.428    -1167.525       15.097   852.5
0.6850        -1152.532    -1167.882       15.349   866.8
0.6900        -1152.654    -1167.904       15.250   861.2
0.6950        -1152.751    -1167.540       14.789   835.2
0.7000        -1152.801    -1167.259       14.459   816.5
0.7050        -1152.835    -1167.402       14.567   822.6
0.7100        -1152.889    -1167.753       14.864   839.4
0.7150        -1152.964    -1168.022       15.059   850.4
0.7200        -1153.058    -1168.203       15.146   855.3
0.7250        -1153.144    -1168.097       14.953   844.4
0.7300        -1153.192    -1167.540       14.348   810.2
0.7350        -1153.168    -1166.919       13.750   776.5
0.7400        -1153.128    -1167.033       13.906   785.2
0.7450        -1153.109    -1167.432       14.322   808.8
0.7500        -1153.143    -1167.752       14.610   825.0
0.7550        -1153.165    -1167.488       14.323   808.8
0.7600        -1153.163    -1167.212       14.049   793.3
0.7650        -1153.144    -1167.322       14.179   800.7
0.7700        -1153.157    -1167.571       14.414   813.9
0.7750        -1153.165    -1167.298       14.133   798.1
0.7800        -1153.155    -1167.147       13.992   790.1
0.7850        -1153.143    -1167.289       14.146   798.8
0.7900        -1153.166    -1167.547       14.381   812.1
0.7950        -1153.179    -1167.229       14.051   793.4
0.8000        -1153.166    -1167.126       13.960   788.3
0.8050        -1153.152    -1167.234       14.081   795.2
0.8100        -1153.159    -1167.551       14.392   812.7
0.8150        -1153.171    -1167.473       14.302   807.6
0.8200        -1153.171    -1167.328       14.157   799.5
0.8250        -1153.172    -1167.619       14.446   815.8
0.8300        -1153.220    -1168.031       14.811   836.4
0.8350        -1153.280    -1168.083       14.803   835.9
0.8400        -1153.311    -1167.558       14.247   804.5
0.8450        -1153.303    -1167.297       13.994   790.2
0.8500        -1153.271    -1166.857       13.587   767.2
0.8550        -1153.172    -1165.923       12.751   720.1
0.8600        -1152.998    -1165.238       12.240   691.2
0.8650        -1152.818    -1165.553       12.734   719.1
0.8700        -1152.706    -1166.219       13.513   763.1
0.8750        -1152.675    -1166.818       14.143   798.7
0.8800        -1152.683    -1166.896       14.213   802.6
0.8850        -1152.693    -1166.963       14.270   805.8
0.8900        -1152.714    -1167.132       14.417   814.1
0.8950        -1152.749    -1167.183       14.434   815.1
0.9000        -1152.753    -1166.723       13.970   788.9
0.9050        -1152.734    -1166.837       14.103   796.4
0.9100        -1152.740    -1167.015       14.275   806.1
0.9150        -1152.768    -1167.568       14.800   835.7
0.9200        -1152.851    -1167.910       15.060   850.4
0.9250        -1152.929    -1167.811       14.882   840.4
0.9300        -1152.986    -1167.594       14.608   824.9
0.9350        -1153.028    -1167.698       14.670   828.4
0.9400        -1153.077    -1167.643       14.566   822.5
0.9450        -1153.101    -1167.477       14.376   811.8
0.9500        -1153.121    -1167.433       14.312   808.2
0.9550        -1153.132    -1167.583       14.452   816.1
0.9600        -1153.178    -1168.005       14.827   837.3
0.9650        -1153.231    -1167.756       14.524   820.2
0.9700        -1153.237    -1167.148       13.911   785.5
0.9750        -1153.176    -1166.591       13.415   757.5
0.9800        -1153.102    -1166.559       13.457   759.9
0.9850        -1153.024    -1166.572       13.548   765.1
0.9900        -1152.963    -1166.487       13.524   763.7
0.9950        -1152.878    -1166.094       13.216   746.3
1.0000        -1152.786    -1166.093       13.306   751.4
1.0050        -1152.706    -1166.182       13.475   761.0
1.0100        -1152.651    -1166.375       13.723   775.0
1.0150        -1152.611    -1166.347       13.736   775.7
1.0200        -1152.557    -1166.076       13.518   763.4
1.0250        -1152.498    -1166.277       13.779   778.1
1.0300        -1152.501    -1167.197       14.696   829.9
1.0350        -1152.584    -1167.836       15.251   861.2
1.0400        -1152.686    -1167.641       14.955   844.5
1.0450        -1152.739    -1167.227       14.488   818.1
1.0500        -1152.778    -1167.491       14.713   830.9
1.0550        -1152.846    -1167.766       14.919   842.5
1.0600        -1152.913    -1167.442       14.529   820.5
1.0650        -1152.920    -1166.927       14.007   791.0
1.0700        -1152.923    -1167.331       14.409   813.7
1.0750        -1152.961    -1167.517       14.556   822.0
1.0800        -1152.983    -1167.001       14.018   791.6
1.0850        -1152.937    -1166.455       13.518   763.3
1.0900        -1152.891    -1166.853       13.962   788.4
1.0950        -1152.896    -1167.254       14.358   810.8
1.1000        -1152.918    -1167.223       14.305   807.8
1.1050        -1152.925    -1167.183       14.258   805.1
1.1100        -1152.958    -1167.687       14.728   831.7
1.1150        -1153.025    -1167.925       14.900   841.4
1.1200        -1153.093    -1167.814       14.722   831.3
1.1250        -1153.135    -1167.648       14.513   819.5
1.1300        -1153.175    -1167.818       14.643   826.9
1.1350        -1153.217    -1167.709       14.492   818.4
1.1400        -1153.231    -1167.266       14.035   792.6
1.1450        -1153.195    -1166.851       13.655   771.1
1.1500        -1153.148    -1166.932       13.785   778.4
1.1550        -1153.128    -1167.337       14.209   802.4
1.1600        -1153.159    -1167.802       14.644   826.9
1.1650        -1153.186    -1167.260       14.074   794.7
1.1700        -1153.171    -1167.216       14.046   793.2
1.1750        -1153.185    -1167.674       14.489   818.2
1.1800        -1153.233    -1167.905       14.672   828.5
1.1850        -1153.247    -1166.942       13.695   773.4
1.1900        -1153.157    -1166.320       13.162   743.3
1.1950        -1153.093    -1167.161       14.069   794.4
1.2000        -1153.091    -1167.456       14.365   811.2
